Shunt 1,sys_ref,Filtered current,Particle saturation current,Plasma potential index,Plasma potential,Particle temperature (eV),Particle temperature (Joules),Particle density
200.0,"{'relay_addresses': [], 'sweeper_address': 1, 'collector_address': 2, 'rejector_address': 3, 'collector_bias_address': 4}","[0.00885309 0.01293614 0.01714856 0.02148304 0.02593207 0.03048801
 0.03514315 0.03988976 0.04472006 0.0496263  0.05460074 0.05963565
 0.06472337 0.06985623 0.07502659 0.08022684 0.08544933 0.09068642
 0.09593042 0.10117359 0.10640813 0.11162612 0.11681955 0.12198027
 0.12709999 0.13217028 0.13718252 0.14212795 0.14699761 0.15178239
 0.15647303 0.16106013 0.16553416 0.16988554 0.17410462 0.17818179
 0.18210752 0.1858724  0.18946728 0.19288333 0.19611219 0.19914603
 0.20197777 0.20460117 0.20701104 0.20920342 0.21117577 0.21292722
 0.21445878 0.21577363]",0.21577362966951127,49,300.0,2003.3289748983518,3.2096867455842575e-16,179841952995.8544
200.0,"{'relay_addresses': [], 'sweeper_address': 1, 'collector_address': 2, 'rejector_address': 3, 'collector_bias_address': 4}","[0.25885309 0.26293614 0.26714856 0.27148304 0.27593207 0.28048801
 0.28514315 0.28988976 0.29472006 0.2996263  0.30460074 0.30963565
 0.31472337 0.31985623 0.32502659 0.33022684 0.33544933 0.34068642
 0.34593042 0.35117359 0.35640813 0.36162612 0.36681955 0.37198027
 0.37709999 0.38217028 0.38718252 0.39212795 0.39699761 0.40178239
 0.40647303 0.41106013 0.41553416 0.41988554 0.42410462 0.42818179
 0.43210752 0.4358724  0.43946728 0.44288333 0.44611219 0.44914603
 0.45197777 0.45460117 0.45701104 0.45920342 0.46117577 0.46292722
 0.46445878 0.46577363]",0.4657736296695102,49,300.0,4331.533488820621,6.939881467958755e-16,264011495838.2873
200.0,"{'relay_addresses': [], 'sweeper_address': 1, 'collector_address': 2, 'rejector_address': 3, 'collector_bias_address': 4}","[0.50885309 0.51293614 0.51714856 0.52148304 0.52593207 0.53048801
 0.53514315 0.53988976 0.54472006 0.5496263  0.55460074 0.55963565
 0.56472337 0.56985623 0.57502659 0.58022684 0.58544933 0.59068642
 0.59593042 0.60117359 0.60640813 0.61162612 0.61681955 0.62198027
 0.62709999 0.63217028 0.63718252 0.64212795 0.64699761 0.65178239
 0.65647303 0.66106013 0.66553416 0.66988554 0.67410462 0.67818179
 0.68210752 0.6858724  0.68946728 0.69288333 0.69611219 0.69914603
 0.70197777 0.70460117 0.70701104 0.70920342 0.71117577 0.71292722
 0.71445878 0.71577363]",0.7157736296695095,49,300.0,6659.735658785099,1.0670072434899e-15,327202021182.5417
200.0,"{'relay_addresses': [], 'sweeper_address': 1, 'collector_address': 2, 'rejector_address': 3, 'collector_bias_address': 4}","[0.75885309 0.76293614 0.76714856 0.77148304 0.77593207 0.78048801
 0.78514315 0.78988976 0.79472006 0.7996263  0.80460074 0.80963565
 0.81472337 0.81985623 0.82502659 0.83022684 0.83544933 0.84068642
 0.84593042 0.85117359 0.85640813 0.86162612 0.86681955 0.87198027
 0.87709999 0.88217028 0.88718252 0.89212795 0.89699761 0.90178239
 0.90647303 0.91106013 0.91553416 0.91988554 0.92410462 0.92818179
 0.93210752 0.9358724  0.93946728 0.94288333 0.94611219 0.94914603
 0.95197777 0.95460117 0.95701104 0.95920342 0.96117577 0.96292722
 0.96445878 0.96577363]",0.9657736296695076,49,300.0,8987.937306303002,1.4400262564787582e-15,380026695090.12695
200.0,"{'relay_addresses': [], 'sweeper_address': 1, 'collector_address': 2, 'rejector_address': 3, 'collector_bias_address': 4}","[1.00885309 1.01293614 1.01714856 1.02148304 1.02593207 1.03048801
 1.03514315 1.03988976 1.04472006 1.0496263  1.05460074 1.05963565
 1.06472337 1.06985623 1.07502659 1.08022684 1.08544933 1.09068642
 1.09593042 1.10117359 1.10640813 1.11162612 1.11681955 1.12198027
 1.12709999 1.13217028 1.13718252 1.14212795 1.14699761 1.15178239
 1.15647303 1.16106013 1.16553416 1.16988554 1.17410462 1.17818179
 1.18210752 1.1858724  1.18946728 1.19288333 1.19611219 1.19914603
 1.20197777 1.20460117 1.20701104 1.20920342 1.21117577 1.21292722
 1.21445878 1.21577363]",1.2157736296695068,49,300.0,11316.138753841833,1.813045237427438e-15,426355987580.5807
