Shunt 1,sys_ref,Filtered current,Ion saturation current,Electron temperature (eV),Electron temperature (Joules),Electron density,Debye length,Number of electrons
200.0,"{'relay_addresses': [], 'sweeper_address': 1, 'collector_address': 2}","[5.05885309 5.06293614 5.06714856 5.07148304 5.07593207 5.08048801
 5.08514315 5.08988976 5.09472006 5.0996263  5.10460074 5.10963565
 5.11472337 5.11985623 5.12502659 5.13022684 5.13544933 5.14068642
 5.14593042 5.15117359 5.15640813 5.16162612 5.16681955 5.17198027
 5.17709999 5.18217028 5.18718252 5.19212795 5.19699761 5.20178239
 5.20647303 5.21106013 5.21553416 5.21988554 5.22410462 5.22818179
 5.23210752 5.2358724  5.23946728 5.24288333 5.24611219 5.24914603
 5.25197777 5.25460117 5.25701104 5.25920342 5.26117577 5.26292722
 5.26445878 5.26577363]",5.058853094434836,6143.807033167841,9.843463679142726e-16,427429234498926.5,0.039858067691409586,71362338406328
200.0,"{'relay_addresses': [], 'sweeper_address': 1, 'collector_address': 2}","[5.30885309 5.31293614 5.31714856 5.32148304 5.32593207 5.33048801
 5.33514315 5.33988976 5.34472006 5.3496263  5.35460074 5.35963565
 5.36472337 5.36985623 5.37502659 5.38022684 5.38544933 5.39068642
 5.39593042 5.40117359 5.40640813 5.41162612 5.41681955 5.42198027
 5.42709999 5.43217028 5.43718252 5.44212795 5.44699761 5.45178239
 5.45647303 5.46106013 5.46553416 5.46988554 5.47410462 5.47818179
 5.48210752 5.4858724  5.48946728 5.49288333 5.49611219 5.49914603
 5.50197777 5.50460117 5.50701104 5.50920342 5.51117577 5.51292722
 5.51445878 5.51577363]",5.30885309443484,6447.423629587303,1.0329911076189135e-15,437863296937422.75,0.04034162614363259,73991282054698
200.0,"{'relay_addresses': [], 'sweeper_address': 1, 'collector_address': 2}","[5.55885309 5.56293614 5.56714856 5.57148304 5.57593207 5.58048801
 5.58514315 5.58988976 5.59472006 5.5996263  5.60460074 5.60963565
 5.61472337 5.61985623 5.62502659 5.63022684 5.63544933 5.64068642
 5.64593042 5.65117359 5.65640813 5.66162612 5.66681955 5.67198027
 5.67709999 5.68217028 5.68718252 5.69212795 5.69699761 5.70178239
 5.70647303 5.71106013 5.71553416 5.71988554 5.72410462 5.72818179
 5.73210752 5.7358724  5.73946728 5.74288333 5.74611219 5.74914603
 5.75197777 5.75460117 5.75701104 5.75920342 5.76117577 5.76292722
 5.76445878 5.76577363]",5.558853094434772,6751.040225992606,1.0816358473212858e-15,448054442122714.4,0.04080839578838399,76589444448189
200.0,"{'relay_addresses': [], 'sweeper_address': 1, 'collector_address': 2}","[5.80885309 5.81293614 5.81714856 5.82148304 5.82593207 5.83048801
 5.83514315 5.83988976 5.84472006 5.8496263  5.85460074 5.85963565
 5.86472337 5.86985623 5.87502659 5.88022684 5.88544933 5.89068642
 5.89593042 5.90117359 5.90640813 5.91162612 5.91681955 5.92198027
 5.92709999 5.93217028 5.93718252 5.94212795 5.94699761 5.95178239
 5.95647303 5.96106013 5.96553416 5.96988554 5.97410462 5.97818179
 5.98210752 5.9858724  5.98946728 5.99288333 5.99611219 5.99914603
 6.00197777 6.00460117 6.00701104 6.00920342 6.01117577 6.01292722
 6.01445878 6.01577363]",5.80885309443488,7054.6568224134735,1.1302805870261518e-15,458018885425518.2,0.041259676804286334,79158547495882
200.0,"{'relay_addresses': [], 'sweeper_address': 1, 'collector_address': 2}","[6.05885309 6.06293614 6.06714856 6.07148304 6.07593207 6.08048801
 6.08514315 6.08988976 6.09472006 6.0996263  6.10460074 6.10963565
 6.11472337 6.11985623 6.12502659 6.13022684 6.13544933 6.14068642
 6.14593042 6.15117359 6.15640813 6.16162612 6.16681955 6.17198027
 6.17709999 6.18217028 6.18718252 6.19212795 6.19699761 6.20178239
 6.20647303 6.21106013 6.21553416 6.21988554 6.22410462 6.22818179
 6.23210752 6.2358724  6.23946728 6.24288333 6.24611219 6.24914603
 6.25197777 6.25460117 6.25701104 6.25920342 6.26117577 6.26292722
 6.26445878 6.26577363]",6.058853094434763,7358.273418814798,1.1789253267278867e-15,467771114657089.4,0.04169661781961555,81700147106125
200.0,"{'relay_addresses': [], 'sweeper_address': 1, 'collector_address': 2}","[6.30885309 6.31293614 6.31714856 6.32148304 6.32593207 6.33048801
 6.33514315 6.33988976 6.34472006 6.3496263  6.35460074 6.35963565
 6.36472337 6.36985623 6.37502659 6.38022684 6.38544933 6.39068642
 6.39593042 6.40117359 6.40640813 6.41162612 6.41681955 6.42198027
 6.42709999 6.43217028 6.43718252 6.44212795 6.44699761 6.45178239
 6.45647303 6.46106013 6.46553416 6.46988554 6.47410462 6.47818179
 6.48210752 6.4858724  6.48946728 6.49288333 6.49611219 6.49914603
 6.50197777 6.50460117 6.50701104 6.50920342 6.51117577 6.51292722
 6.51445878 6.51577363]",6.3088530944348635,7661.89001523805,1.2275700664331346e-15,477324137256855.5,0.042120239025799554,84215655358496
